!Freq, Monte-Carlo estimated std unc, Sensitivity-analysis estimated std unc, 95% upper confidence interval for convergence of Monte-Carlo std unc, 95% lower confidence interval for convergence of Monte-Carlo std unc
0.001	3.49402357762255	3.90736389413375	3.57433286387049	3.25557185905291
0.0029999	3.16716956423002	3.60098043460475	3.2252935165752	2.95757435398433
0.0049998	2.90559538127157	3.23794000758538	2.92681874500316	2.66473034309674
0.0069997	2.70957539920865	2.98000409474341	2.76937304022976	2.45843952667546
0.0089996	2.51439754318431	2.82181930051417	2.59597841052145	2.25515196929278
0.0109995	2.32806237187337	2.7182597449332	2.42187527181347	2.06278370207576
0.0129994	2.14474404162445	2.63352803987979	2.22568301227301	1.87854285574058
0.0149993	1.97066853390799	2.5311138771822	2.03457015340729	1.70379097587259
0.0169992	1.82023839853434	2.44485219539579	1.87208973298681	1.55555066240016
0.0189991	1.68385599123303	2.36145798134065	1.71698846853049	1.42114486519644
0.020999	1.5635882469489	2.25588076540296	1.60801946373207	1.28831223268013
0.0229989	1.46551961162317	2.13791370763042	1.53946644544758	1.1698508901059
0.0249988	1.38303621428837	2.04523241653434	1.46068058804584	1.07390209809264
0.0269987	1.30072042327495	1.94015286148896	1.37022842486787	0.972035461098186
0.0289986	1.23589153323441	1.81238851467065	1.29888651925209	0.887906262351517
0.0309985	1.17775554524025	1.7003908377227	1.23688654002723	0.818619565361755
0.0329984	1.12070295414679	1.60208646725328	1.19240739556153	0.758509676113514
0.0349983	1.06065686384585	1.47868498363576	1.14289177855282	0.699032519463319
0.0369982	1.00758502471137	1.37105035821853	1.09223129815106	0.653958689982916
0.0389981	0.962407415012009	1.25718039413675	1.0491933875331	0.616060085337517
0.040998	0.900873118118716	1.15961700841412	0.979398799938537	0.576679592525743
0.0429979	0.857200059208412	1.05016271877774	0.933257553496557	0.547086887651263
0.0449978	0.814694853798988	0.975289366527682	0.885273870793358	0.520575092052602
0.0469977	0.770863387992348	0.895715537395563	0.829612616589552	0.501591189097108
0.0489976	0.724293839985587	0.809113594568374	0.774693227616972	0.478173895213929
0.0509975	0.687779401826624	0.73766589787908	0.731448839655136	0.460390036411869
0.0529974	0.652745297070585	0.675024045795636	0.688558208833441	0.44555198425054
0.0549973	0.61328995216501	0.61120522717204	0.641597979983984	0.426590038369379
0.0569972	0.590507897453517	0.562218390620102	0.613440418788806	0.417337497438597
0.0589971	0.560591581902539	0.510704850223612	0.582585760859889	0.403167045850029
0.060997	0.536346830239653	0.471651010095674	0.559919514032292	0.391401191987882
0.0629969	0.507887067569376	0.429848395522527	0.532044615276629	0.378729356297841
0.0649968	0.482439019518764	0.386759428337196	0.507973217759321	0.364899540567586
0.0669967	0.463151052829657	0.354949839178252	0.489571453210941	0.355059856806922
0.0689966	0.443948345407461	0.329247580371426	0.470641645606202	0.343896781417514
0.0709965	0.421505100643892	0.299635292667332	0.447866680844566	0.331774485944954
0.0729964	0.409282652330059	0.276179098660113	0.436549916371824	0.325118596156264
0.0749963	0.392028431569173	0.25797471964663	0.418672188057257	0.314437625504454
0.0769962	0.37652122303617	0.24316903550628	0.40258260696158	0.304712391648984
0.0789961	0.36105629289558	0.221774884141695	0.386687364459315	0.295372256857707
0.080996	0.350611116703544	0.209464764491387	0.376072713140898	0.288510485357358
0.0829959	0.339287341511928	0.196271994786333	0.364375293504907	0.280839987228619
0.0849958	0.326493055499806	0.184985739224819	0.350402497472937	0.272832545889948
0.0869957	0.314476729672116	0.1724368152005	0.33792449192224	0.263753207429084
0.0889956	0.303635344829774	0.162677931033907	0.326393495168604	0.256168328895317
0.0909955	0.294575107763226	0.156783556803304	0.316659677211795	0.249823417552611
0.0929954	0.28589398347989	0.148712460479731	0.307237831573962	0.244263609269869
0.0949953	0.279577491043811	0.142621572806929	0.300094682440166	0.23915322810251
0.0969952	0.268816298477702	0.136258927842459	0.288470081501371	0.230815207348838
0.0989951	0.260903897399782	0.1321013919186	0.279675901807075	0.224865175187993
0.100995	0.255423909018648	0.126254984893992	0.273434432804901	0.221170039606601
0.1029949	0.245449918846145	0.120796823384017	0.262519535441547	0.213364424844559
0.1049948	0.235886889757728	0.116409714183777	0.251601122386774	0.204838138742326
0.1069947	0.23078418930658	0.11372735106717	0.245789328882487	0.200589340448332
0.1089946	0.222600747510311	0.109608469899598	0.236952082487303	0.193604372593363
0.1109945	0.216498445477116	0.106337901411129	0.229892532349132	0.188112794490503
0.1129944	0.212805523924727	0.104291111020275	0.225616620475063	0.184972324842747
0.1149943	0.204745783978044	0.100712626296121	0.216422673770559	0.177844494204292
0.1169942	0.200107946848108	0.0981860117298571	0.211371365088719	0.173935179595602
0.1189941	0.195362603248345	0.0959012292417697	0.206029249186575	0.169833922450258
0.120994	0.191889800221666	0.09439662365801	0.202042252278367	0.166709285669263
0.1229939	0.185372116793514	0.0915062159622828	0.19453038711745	0.160957507313045
0.1249938	0.180715795576567	0.0892363547315977	0.189614708791668	0.156937126998225
0.1269937	0.177531894352313	0.0884185279624087	0.185650035074039	0.154078135390247
0.1289936	0.170882216397012	0.0859241070881965	0.178700288525176	0.148082801323685
0.1309935	0.170124135748887	0.0852545608262176	0.177937154926177	0.147610253885185
0.1329934	0.163804257319715	0.0823494369417242	0.171488102717033	0.142011927867745
0.1349933	0.160598449819624	0.0815457158506988	0.168549280192523	0.13906257204795
0.1369932	0.156684510065158	0.0798329998013256	0.164604070761622	0.135676575159372
0.1389931	0.153459693081825	0.078294710040004	0.161389233640982	0.132889022393979
0.140993	0.15010338804749	0.0769264818395577	0.15806226102232	0.129932098393325
0.1429929	0.146203842823799	0.0756846465613452	0.154411236316685	0.126248438855149
0.1449928	0.145576700643427	0.0754236243437426	0.153668854077795	0.12604177009036
0.1469927	0.141524273815246	0.0742790908046325	0.149699941705504	0.122378182100447
0.1489926	0.138732947530844	0.0725612642006081	0.146854415850082	0.119969357458181
0.1509925	0.13684995825704	0.0727416948910623	0.14531429790923	0.118222153282358
0.1529924	0.133338928123294	0.0707912857085252	0.141619733579781	0.115180832605876
0.1549923	0.132166479339185	0.0703125158145251	0.140470771997687	0.114252721720396
0.1569922	0.128923146683011	0.0693465731382359	0.137351601691976	0.111241941788415
0.1589921	0.127702159498274	0.0689880095812627	0.136130621164113	0.11041458716088
0.160992	0.124963210103497	0.0679036818770665	0.133376887893672	0.107963632176789
0.1629919	0.12329678959975	0.0673083308369264	0.131713662868043	0.106615153731299
0.1649918	0.121137436444803	0.0669473521130189	0.129706333248817	0.104676865581911
0.1669917	0.119449891384659	0.0662259178629996	0.127912954339895	0.103357082748358
0.1689916	0.116080437596142	0.0645257879047748	0.12446536403231	0.100350415738638
0.1709915	0.115538643880395	0.0649546293927356	0.123990937146764	0.10000442717049
0.1729914	0.115460228072494	0.0650459303254085	0.123912831774897	0.100114563262832
0.1749913	0.113120210566621	0.0641039697161927	0.121572046928498	0.0980941698021796
0.1769912	0.111447114077626	0.0631572353364616	0.119859901404044	0.0966334820220194
0.1789911	0.10964058257128	0.0628424915522322	0.118052189081387	0.0951186883725079
0.180991	0.107509647286715	0.0621404334394705	0.115928285793118	0.0933043735484865
0.1829909	0.10649946071945	0.0616042804990008	0.114869143251505	0.0924592926204098
0.1849908	0.103716228854616	0.0602592104278288	0.111989811684203	0.0901180862428875
0.1869907	0.103630313436463	0.0608531149287911	0.112078459291688	0.0901266555208523
0.1889906	0.102364336618002	0.0601814187394551	0.110573121235253	0.0892338623032191
0.1909905	0.101141514230454	0.0598008627728707	0.109340991155106	0.0881958431189498
0.1929904	0.0998015266605456	0.0591138452259113	0.108039547238862	0.08703431100141
0.1949903	0.0983808302814943	0.0586379965789228	0.106549914351896	0.0859310521609864
0.1969902	0.0969214101328268	0.058058347165615	0.105041261313188	0.0847509718229986
0.1989901	0.0961103798857251	0.0577162331037791	0.104238888616387	0.0840089866991876
0.20099	0.0946696209286851	0.0574132566360347	0.102747423814691	0.0829157925342633
0.2029899	0.0933137380304057	0.0569618640963629	0.101361844057526	0.0818054162245488
0.2049898	0.0925975268139529	0.0563681284691675	0.100532500119818	0.0812734224611115
0.2069897	0.0916183689364577	0.0560849916387033	0.0995264270458847	0.0804818106167373
0.2089896	0.0908512937676993	0.0560399842909207	0.0987673985325432	0.0799197285582491
0.2109895	0.0900327985647223	0.0556914489489191	0.097880913548367	0.0792785860441345
0.2129894	0.0889771307110852	0.0551063000802111	0.0967263449734264	0.0785358243740115
0.2149893	0.0878442750331047	0.0544566181037957	0.0955805843161718	0.0775426705144794
0.2169892	0.0870062496051271	0.0544608874237032	0.0946982649025587	0.0769234503368404
0.2189891	0.0862090987301141	0.0539942093034897	0.0939043175301266	0.0762640040773182
0.220989	0.0852424992291372	0.0536064899221858	0.092801665980296	0.0755132776670809
0.2229889	0.0840252516756891	0.053152648133365	0.0915943907076958	0.0744274927194231
0.2249888	0.0833718180299903	0.0529543261734403	0.0908061914708309	0.0740943424307815
0.2269887	0.0829082024070724	0.0527334186507795	0.0903296629315081	0.0736944455989165
0.2289886	0.0821807920192082	0.0523246831068316	0.0895321344014726	0.0731385776146165
0.2309885	0.0816367297116838	0.0523569747113175	0.089009383097793	0.0727328102702448
0.2329884	0.0810983862677822	0.052025298398201	0.0883667577739169	0.0723857228514861
0.2349883	0.0799166731089251	0.0516349947483567	0.0870637428507408	0.071445495675864
0.2369882	0.0798424751601947	0.0516602377746763	0.0869757088879512	0.0713953474802745
0.2389881	0.0791863533916068	0.0514481489055027	0.0861274368822234	0.0709625237303042
0.240988	0.0785141581689004	0.0514454002613753	0.0852778502847939	0.0704684079259298
0.2429879	0.0783767031833336	0.0513528254203763	0.0851014213953823	0.0703924563279422
0.2449878	0.0777894429307495	0.0511057879723578	0.0844190222905153	0.069921534477073
0.2469877	0.0772203729823904	0.0508918440164992	0.0836626489983182	0.0695703794970907
0.2489876	0.0761069896217682	0.0504043022111436	0.0824127498272705	0.068606935635384
0.2509875	0.0755016299327936	0.0502068290517258	0.0816708802322806	0.0681210623478777
0.2529874	0.0754950596986109	0.0503497863978235	0.0815918204857085	0.0681739165143964
0.2549873	0.0748515550336768	0.0501731630779385	0.0807874983054284	0.0676772721180467
0.2569872	0.0743093685870955	0.0499868914200869	0.0801389573226087	0.0672165115116863
0.2589871	0.0743397171922334	0.0500359024604417	0.0801650426345582	0.0672665338048135
0.260987	0.0736083222186077	0.0496908151947688	0.0792747316740274	0.066666799788332
0.2629869	0.07305321364792	0.0494942932081697	0.0786177261067186	0.0662158870009401
0.2649868	0.0726158741179839	0.0493876910442713	0.0780772989147129	0.06588756872736
0.2669867	0.0719867815971128	0.0491148602873688	0.0773340104540689	0.0653403863693827
0.2689866	0.072097363827883	0.0493984893143189	0.0773754096291554	0.0655179368195044
0.2709865	0.071297869739332	0.0490224985632891	0.0764481719922636	0.0648527349211736
0.2729864	0.0711459529275151	0.0489155599150829	0.0762449436957467	0.0647317688119324
0.2749863	0.071038533486799	0.048944398668702	0.07610846454535	0.0646569730912096
0.2769862	0.0699228204258803	0.0485612601107965	0.0747830344601533	0.0637772441849048
0.2789861	0.0698622353197192	0.0485067837025136	0.0747223049933458	0.0637213695221592
0.280986	0.0695051762861864	0.048456998653306	0.0742468627161747	0.0634798450452677
0.2829859	0.0689204613194041	0.0481695921897161	0.0735930045822092	0.0629644646856677
0.2849858	0.0689441839208103	0.0483823092017869	0.0735314711354886	0.0630874606673819
0.2869857	0.0682617313337725	0.0479632613254779	0.0727679866677867	0.0625095752055335
0.2889856	0.0683810944065888	0.0480820631751831	0.0728716130607822	0.0626358657957028
0.2909855	0.0674244494571101	0.0476721080550482	0.0717542538003684	0.0618610030665034
0.2929854	0.0672526057881951	0.0476068206327567	0.0715425982330057	0.0617486025412528
0.2949853	0.0671513362403758	0.0476174934532513	0.0713957290139969	0.061699546869147
0.2969852	0.0667417469302066	0.0474617926823021	0.0709295001565222	0.061358249920287
0.2989851	0.066198295972703	0.0472630390139523	0.0702685932412643	0.0609584125684862
0.300985	0.0660453165661375	0.0472315828847303	0.0700797691069861	0.0608594806841978
0.3029849	0.065900853319767	0.0471796135719676	0.0699078703571418	0.0607282753379866
0.3049848	0.0655801302809167	0.0470884081194627	0.069505744070019	0.0605331153451299
0.3069847	0.0650592992014497	0.0469109986844959	0.068883330720397	0.0601449869081641
0.3089846	0.0649603129464455	0.0468709746560843	0.0687750236398698	0.060041628310014
0.3109845	0.0652487381380744	0.0472149761938913	0.0690456466264175	0.06037173216078
0.3129844	0.0641444890539768	0.046551098437049	0.0678097857277074	0.0594366522064907
0.3149843	0.0642036662944622	0.046735023509564	0.0678330513101999	0.0595379219613346
0.3169842	0.0642605489879808	0.0468391940002131	0.0678724169690946	0.0596361933127519
0.3189841	0.0638364873566441	0.0466314872086702	0.0673900634071592	0.0592641621143832
0.320984	0.0631013191747885	0.0463322339919817	0.0665138776323913	0.0587173950893754
0.3229839	0.063597245924772	0.0466129009096888	0.0670517802853902	0.0591816021439855
0.3249838	0.0634636710484918	0.046813433450943	0.0668582877537511	0.0591075563741159
0.3269837	0.0630386541392842	0.0464618995405366	0.0663868189752793	0.0587669633859086
0.3289836	0.0625278241093422	0.0463360066505513	0.0657594509096334	0.0584097208735723
0.3309835	0.0625216151413368	0.0464063671787315	0.0657425207718106	0.0584100231740501
0.3329834	0.0621431836141791	0.0461810645360437	0.0653185028857289	0.0580937661104783
0.3349833	0.0619790825110901	0.0462047930334055	0.0650988720072392	0.0580126352595623
0.3369832	0.0618070742238658	0.0461976476538778	0.0648749625640386	0.0579054829455735
0.3389831	0.0616066998400093	0.046028402449279	0.0646476120031514	0.057755871086356
0.340983	0.0617180435325952	0.0462494650817352	0.0647355767183291	0.0579016806276431
0.3429829	0.061204779979106	0.0460259393876698	0.0641415840463085	0.0574860268791536
0.3449828	0.0611743416096577	0.0459723857990157	0.0640978415437497	0.0574851108851611
0.3469827	0.0610888056524362	0.0460572861817367	0.0639715749447359	0.0574561541761534
0.3489826	0.0607296238027853	0.0458851339617582	0.0635499386192552	0.0571783513840164
0.3509825	0.0605135776157086	0.0458445755898749	0.0632998370368315	0.0570115628566625
0.3529824	0.0604617097520299	0.0458674817661087	0.0632024528072296	0.0570484136260723
0.3549823	0.060276419082516	0.0458027089589204	0.0630001408036581	0.0568856391947466
0.3569822	0.060341888664961	0.0459118714044567	0.0630340718484892	0.0569936732910232
0.3589821	0.0598808073968931	0.0457067741956648	0.0625152211084917	0.0565690058903342
0.360982	0.0596525667623879	0.0455510106797643	0.0622550235011294	0.0563618228258491
0.3629819	0.0595931329890769	0.0455663148052455	0.0621703808844074	0.056296865391841
0.3649818	0.0592915163167776	0.0454302104418779	0.0618277833876068	0.0560266011029194
0.3669817	0.0591475320285331	0.0453850067117642	0.0616505194915979	0.0558803325488108
0.3689816	0.0590778853225588	0.0453841283620541	0.061564099433042	0.0558639279673783
0.3709815	0.0586918733091958	0.045169601827025	0.0611317978247933	0.0555005929701255
0.3729814	0.0583374663051018	0.0450370643287206	0.0607216997926347	0.0551159264665436
0.3749813	0.0585183787260615	0.0451935084973946	0.0608989241789189	0.0553116995605013
0.3769812	0.0585640972211485	0.0452193242580079	0.0609467878432944	0.0553749212153455
0.3789811	0.0581931724315517	0.0451334332964278	0.0605065429743522	0.0550438111734088
0.380981	0.0579175544065676	0.0449399483856751	0.0602067424952898	0.0547717013796665
0.3829809	0.0580756174411923	0.045029770646641	0.0603750670244573	0.0549109028498439
0.3849808	0.0575263522273075	0.0447657352316944	0.0597560854236141	0.0544476304761611
0.3869807	0.0575028145606125	0.0448482182480181	0.0596948406440751	0.0543953527503993
0.3889806	0.0573822941695529	0.0447589346775133	0.0595726932305853	0.0543079255410282
0.3909805	0.0575019894875072	0.0449058347976451	0.0596806243939081	0.0544710185855539
0.3929804	0.0572647846694869	0.0448140168191932	0.0594127775500145	0.0542287287514701
0.3949803	0.0571432462042189	0.0447957593996508	0.0592591146934228	0.0541261180871433
0.3969802	0.0567550511886441	0.0445840586271428	0.0588316058450392	0.053770707091939
0.3989801	0.056845040655444	0.0446553888750055	0.0589093272735736	0.0538642263010666
0.40098	0.0565164070868485	0.0445464288711318	0.0585364438802452	0.0535728359210061
0.4029799	0.0567124639207165	0.0447235105453863	0.0587319886656163	0.0537435083118799
0.4049798	0.0565663900308737	0.0446492556047478	0.0585587913393028	0.05363962321545
0.4069797	0.0561534989399916	0.0443979176454429	0.0581160820993819	0.0533003399425468
0.4089796	0.0563887511580614	0.0446269271714709	0.0583362808945748	0.0534822730398283
0.4109795	0.0560848563234422	0.044460508186848	0.0580070849504541	0.0532256320795551
0.4129794	0.0561022080756913	0.0445369744140403	0.0580052669880355	0.0532280595585448
0.4149793	0.055887611081104	0.0444485613481318	0.0577592887734494	0.0531004746738349
0.4169792	0.0556531378480448	0.044285981770226	0.0574961169485405	0.0528740386020282
0.4189791	0.0558557886731841	0.0444867313799208	0.0577111812650841	0.0530966256750418
0.420979	0.0557618512416577	0.044450094525253	0.0575873541180073	0.0529495803232961
0.4229789	0.0551809186560936	0.0441003868587712	0.0569609527133886	0.0524695926653109
0.4249788	0.0553237087444986	0.0442618001219865	0.0570953525437553	0.052596255923593
0.4269787	0.0553326900979281	0.0442883335743101	0.0570950258965411	0.0525989920026025
0.4289786	0.0553690590874222	0.0443884707363562	0.0571158206192604	0.0526703885904993
0.4309785	0.0549442720606687	0.0440719447349439	0.0566639616619514	0.0522444017147164
0.4329784	0.0550428338531017	0.044191468735478	0.0567553676533125	0.0523904018509072
0.4349783	0.0550697160722675	0.0442580945567634	0.0567730853917213	0.0524413267125026
0.4369782	0.0548047145986674	0.044120717350531	0.0564714187805368	0.0521908321523319
0.4389781	0.0545982328871075	0.0439551107205219	0.0562541506527236	0.0519926794456596
0.440978	0.0547310021480942	0.0441342430379663	0.0563767652641866	0.052150562938467
0.4429779	0.0547665703273709	0.044200858698821	0.0564022391755699	0.0522219565090669
0.4449778	0.054203207075768	0.0438630932719265	0.055786852350272	0.0516778698651526
0.4469777	0.0542158958718452	0.0438405226012751	0.0558062952965666	0.0516949529452605
0.4489776	0.0543445601916916	0.0439878521600379	0.0559336350586061	0.0518598983655172
0.4509775	0.0543356409760461	0.0440382207201741	0.055909711802399	0.0518617003818952
0.4529774	0.0539154756306916	0.0437735529261713	0.0554520219151171	0.0514537224676298
0.4549773	0.0539579305261127	0.0438283217825672	0.0554890210176698	0.0515060151069784
0.4569772	0.0538965838539191	0.0438169190224175	0.0554159683866349	0.051466610383264
0.4589771	0.0540733762432081	0.0440477200771001	0.0555788145049721	0.0516602899317726
0.460977	0.0537338739500393	0.0437596341856437	0.0552278225556339	0.0513582985858239
0.4629769	0.0534491806415857	0.0435804781879068	0.0549184733745985	0.0510779162783397
0.4649768	0.0536425976297516	0.0437631602798322	0.055116998204863	0.0513305389189598
0.4669767	0.053325382291782	0.0435954861253	0.0547612544065352	0.0509795629511098
0.4689766	0.0532918820099007	0.0435392325630257	0.0547339485812693	0.0510341684457232
0.4709765	0.0535646439284026	0.0438908106701888	0.0549922382095725	0.0512912575828819
